Name: Acer rubrum
Type: Vegetation
Class: Tree
Genus: Acer
Species: rubrum
Sample No.: ACRU-1-13
Owner: UCSB
Wavelength Range: VSWIR
Origin: USA; Massachusetts; Harvard Forest
Collection Date: 7/8/2013
Description: Samples were collected as part of NSF Macrosystem Biology proposal titled: Collaborative Research: Thermal controls on ecosystem metabolism and function: scaling from leaves to canopies to regions. Samples were collected and overnighted to JPL facilities for processing. The same leaves were processed in the Nicolet and then measured using the ASD.
Measurement: Bidirectional reflectance
First Column: X
Second Column: Y
X Units: Wavelength (micrometers)
Y Units: Reflectance (percentage)
First X Value: 0.35
Last X Value: 2.5
Number of X Values: 2151
Additional Information: vegetation.tree.acer.rubrum.vswir.acru-1-13.ucsb.asd.ancillary.txt

 0.3500	10.9880
 0.3510	10.6410
 0.3520	10.3770
 0.3530	10.4190
 0.3540	10.7070
 0.3550	10.7170
 0.3560	10.5650
 0.3570	10.4340
 0.3580	10.4910
 0.3590	10.4400
 0.3600	10.3190
 0.3610	10.2300
 0.3620	10.3220
 0.3630	10.2930
 0.3640	10.2760
 0.3650	10.4020
 0.3660	10.3680
 0.3670	10.3030
 0.3680	10.2850
 0.3690	10.3380
 0.3700	10.3590
 0.3710	10.3410
 0.3720	10.3070
 0.3730	10.3010
 0.3740	10.3140
 0.3750	10.2640
 0.3760	10.1230
 0.3770	10.2310
 0.3780	10.3190
 0.3790	10.2730
 0.3800	10.1490
 0.3810	10.1710
 0.3820	10.2050
 0.3830	10.1620
 0.3840	10.1940
 0.3850	10.2180
 0.3860	10.2180
 0.3870	10.2060
 0.3880	10.1980
 0.3890	10.1910
 0.3900	10.1680
 0.3910	10.1000
 0.3920	10.0790
 0.3930	10.0810
 0.3940	10.0830
 0.3950	10.1490
 0.3960	10.1160
 0.3970	10.0470
 0.3980	10.0820
 0.3990	10.0660
 0.4000	10.0690
 0.4010	10.0960
 0.4020	10.0390
 0.4030	 9.9710
 0.4040	 9.9610
 0.4050	10.0220
 0.4060	 9.9570
 0.4070	 9.9520
 0.4080	10.0010
 0.4090	 9.9750
 0.4100	 9.9950
 0.4110	 9.9940
 0.4120	 9.9540
 0.4130	 9.9910
 0.4140	10.0060
 0.4150	10.0200
 0.4160	10.0660
 0.4170	10.0390
 0.4180	10.0150
 0.4190	10.0280
 0.4200	10.0670
 0.4210	10.0590
 0.4220	10.0400
 0.4230	10.0460
 0.4240	10.0750
 0.4250	10.0960
 0.4260	10.0970
 0.4270	10.0830
 0.4280	10.0870
 0.4290	10.0860
 0.4300	10.0740
 0.4310	10.0790
 0.4320	10.0500
 0.4330	10.0040
 0.4340	 9.9710
 0.4350	 9.9540
 0.4360	 9.9600
 0.4370	 9.9890
 0.4380	10.0330
 0.4390	10.0300
 0.4400	10.0360
 0.4410	10.0780
 0.4420	10.0840
 0.4430	10.0790
 0.4440	10.0720
 0.4450	10.0680
 0.4460	10.0710
 0.4470	10.0860
 0.4480	10.1030
 0.4490	10.0990
 0.4500	10.0900
 0.4510	10.0840
 0.4520	10.0880
 0.4530	10.1070
 0.4540	10.1050
 0.4550	10.0960
 0.4560	10.1150
 0.4570	10.1100
 0.4580	10.0960
 0.4590	10.0900
 0.4600	10.0960
 0.4610	10.1070
 0.4620	10.1150
 0.4630	10.1110
 0.4640	10.1130
 0.4650	10.1150
 0.4660	10.1100
 0.4670	10.0940
 0.4680	10.0920
 0.4690	10.0960
 0.4700	10.0980
 0.4710	10.1090
 0.4720	10.1030
 0.4730	10.0880
 0.4740	10.0910
 0.4750	10.0860
 0.4760	10.0840
 0.4770	10.0880
 0.4780	10.0860
 0.4790	10.0750
 0.4800	10.0670
 0.4810	10.0700
 0.4820	10.0690
 0.4830	10.0720
 0.4840	10.0740
 0.4850	10.0610
 0.4860	10.0540
 0.4870	10.0600
 0.4880	10.0770
 0.4890	10.0760
 0.4900	10.0800
 0.4910	10.0880
 0.4920	10.0890
 0.4930	10.0980
 0.4940	10.1180
 0.4950	10.1390
 0.4960	10.1410
 0.4970	10.1550
 0.4980	10.1720
 0.4990	10.1800
 0.5000	10.1960
 0.5010	10.2210
 0.5020	10.2480
 0.5030	10.2660
 0.5040	10.2850
 0.5050	10.3160
 0.5060	10.3570
 0.5070	10.3850
 0.5080	10.4300
 0.5090	10.4860
 0.5100	10.5330
 0.5110	10.5980
 0.5120	10.6730
 0.5130	10.7510
 0.5140	10.8330
 0.5150	10.9310
 0.5160	11.0460
 0.5170	11.1720
 0.5180	11.2990
 0.5190	11.4390
 0.5200	11.5940
 0.5210	11.7550
 0.5220	11.9100
 0.5230	12.0710
 0.5240	12.2450
 0.5250	12.4100
 0.5260	12.5740
 0.5270	12.7350
 0.5280	12.8830
 0.5290	13.0210
 0.5300	13.1540
 0.5310	13.2820
 0.5320	13.3980
 0.5330	13.5000
 0.5340	13.5930
 0.5350	13.6780
 0.5360	13.7400
 0.5370	13.8000
 0.5380	13.8610
 0.5390	13.9110
 0.5400	13.9450
 0.5410	13.9680
 0.5420	13.9860
 0.5430	14.0180
 0.5440	14.0430
 0.5450	14.0670
 0.5460	14.1090
 0.5470	14.1730
 0.5480	14.2340
 0.5490	14.2770
 0.5500	14.3020
 0.5510	14.3160
 0.5520	14.3200
 0.5530	14.3120
 0.5540	14.3020
 0.5550	14.2780
 0.5560	14.2370
 0.5570	14.1790
 0.5580	14.1090
 0.5590	14.0300
 0.5600	13.9480
 0.5610	13.8610
 0.5620	13.7730
 0.5630	13.6780
 0.5640	13.5710
 0.5650	13.4550
 0.5660	13.3340
 0.5670	13.2100
 0.5680	13.0860
 0.5690	12.9580
 0.5700	12.8250
 0.5710	12.6890
 0.5720	12.5710
 0.5730	12.4610
 0.5740	12.3550
 0.5750	12.2540
 0.5760	12.1610
 0.5770	12.0800
 0.5780	12.0110
 0.5790	11.9400
 0.5800	11.8790
 0.5810	11.8230
 0.5820	11.7660
 0.5830	11.7120
 0.5840	11.6540
 0.5850	11.5970
 0.5860	11.5540
 0.5870	11.5150
 0.5880	11.4830
 0.5890	11.4620
 0.5900	11.4470
 0.5910	11.4280
 0.5920	11.4050
 0.5930	11.3890
 0.5940	11.3770
 0.5950	11.3660
 0.5960	11.3520
 0.5970	11.3310
 0.5980	11.3090
 0.5990	11.2880
 0.6000	11.2650
 0.6010	11.2410
 0.6020	11.2150
 0.6030	11.1880
 0.6040	11.1680
 0.6050	11.1430
 0.6060	11.1150
 0.6070	11.0860
 0.6080	11.0500
 0.6090	10.9990
 0.6100	10.9330
 0.6110	10.8610
 0.6120	10.8290
 0.6130	10.8150
 0.6140	10.8010
 0.6150	10.7790
 0.6160	10.7530
 0.6170	10.7250
 0.6180	10.6980
 0.6190	10.6720
 0.6200	10.6510
 0.6210	10.6330
 0.6220	10.6150
 0.6230	10.6010
 0.6240	10.5880
 0.6250	10.5770
 0.6260	10.5690
 0.6270	10.5620
 0.6280	10.5560
 0.6290	10.5500
 0.6300	10.5360
 0.6310	10.5290
 0.6320	10.5290
 0.6330	10.5230
 0.6340	10.5110
 0.6350	10.4960
 0.6360	10.4770
 0.6370	10.4550
 0.6380	10.4340
 0.6390	10.4120
 0.6400	10.3820
 0.6410	10.3460
 0.6420	10.3170
 0.6430	10.2980
 0.6440	10.2770
 0.6450	10.2510
 0.6460	10.2250
 0.6470	10.2020
 0.6480	10.1790
 0.6490	10.1610
 0.6500	10.1480
 0.6510	10.1380
 0.6520	10.1270
 0.6530	10.1160
 0.6540	10.1050
 0.6550	10.1020
 0.6560	10.0950
 0.6570	10.0830
 0.6580	10.0710
 0.6590	10.0650
 0.6600	10.0520
 0.6610	10.0320
 0.6620	10.0220
 0.6630	10.0170
 0.6640	10.0130
 0.6650	10.0070
 0.6660	10.0000
 0.6670	 9.9950
 0.6680	 9.9950
 0.6690	10.0000
 0.6700	10.0040
 0.6710	10.0080
 0.6720	10.0140
 0.6730	10.0250
 0.6740	10.0340
 0.6750	10.0440
 0.6760	10.0580
 0.6770	10.0710
 0.6780	10.0860
 0.6790	10.1030
 0.6800	10.1230
 0.6810	10.1430
 0.6820	10.1630
 0.6830	10.1870
 0.6840	10.2200
 0.6850	10.2480
 0.6860	10.2770
 0.6870	10.3150
 0.6880	10.3650
 0.6890	10.4270
 0.6900	10.5050
 0.6910	10.6030
 0.6920	10.7290
 0.6930	10.8960
 0.6940	11.1150
 0.6950	11.3830
 0.6960	11.7110
 0.6970	12.1070
 0.6980	12.5750
 0.6990	13.1060
 0.7000	13.7040
 0.7010	14.3620
 0.7020	15.0660
 0.7030	15.8220
 0.7040	16.6160
 0.7050	17.4360
 0.7060	18.2790
 0.7070	19.1280
 0.7080	19.9910
 0.7090	20.8820
 0.7100	21.7760
 0.7110	22.6780
 0.7120	23.5860
 0.7130	24.4910
 0.7140	25.4030
 0.7150	26.3190
 0.7160	27.2310
 0.7170	28.1440
 0.7180	29.0510
 0.7190	29.9530
 0.7200	30.8560
 0.7210	31.7490
 0.7220	32.6290
 0.7230	33.4960
 0.7240	34.3470
 0.7250	35.1830
 0.7260	35.9980
 0.7270	36.7900
 0.7280	37.5560
 0.7290	38.3000
 0.7300	39.0160
 0.7310	39.6990
 0.7320	40.3630
 0.7330	41.0090
 0.7340	41.6250
 0.7350	42.1920
 0.7360	42.7370
 0.7370	43.2710
 0.7380	43.7880
 0.7390	44.2520
 0.7400	44.6830
 0.7410	45.0960
 0.7420	45.4980
 0.7430	45.8570
 0.7440	46.1920
 0.7450	46.5080
 0.7460	46.7910
 0.7470	47.0710
 0.7480	47.3360
 0.7490	47.5680
 0.7500	47.7640
 0.7510	47.9660
 0.7520	48.1560
 0.7530	48.3030
 0.7540	48.4460
 0.7550	48.5870
 0.7560	48.7160
 0.7570	48.8160
 0.7580	48.9220
 0.7590	49.0160
 0.7600	49.0870
 0.7610	49.1450
 0.7620	49.2140
 0.7630	49.2790
 0.7640	49.3260
 0.7650	49.3950
 0.7660	49.4450
 0.7670	49.4720
 0.7680	49.4940
 0.7690	49.5230
 0.7700	49.5570
 0.7710	49.5840
 0.7720	49.5810
 0.7730	49.6090
 0.7740	49.6470
 0.7750	49.6660
 0.7760	49.6720
 0.7770	49.6930
 0.7780	49.7130
 0.7790	49.7090
 0.7800	49.7310
 0.7810	49.7460
 0.7820	49.7430
 0.7830	49.7440
 0.7840	49.7610
 0.7850	49.7760
 0.7860	49.7770
 0.7870	49.7760
 0.7880	49.7860
 0.7890	49.8040
 0.7900	49.8180
 0.7910	49.8090
 0.7920	49.7980
 0.7930	49.7980
 0.7940	49.8080
 0.7950	49.8160
 0.7960	49.8150
 0.7970	49.8100
 0.7980	49.8120
 0.7990	49.8180
 0.8000	49.8210
 0.8010	49.8190
 0.8020	49.8120
 0.8030	49.8010
 0.8040	49.7960
 0.8050	49.8040
 0.8060	49.7850
 0.8070	49.7760
 0.8080	49.7790
 0.8090	49.7690
 0.8100	49.7560
 0.8110	49.7530
 0.8120	49.7570
 0.8130	49.7480
 0.8140	49.7390
 0.8150	49.7250
 0.8160	49.7080
 0.8170	49.7100
 0.8180	49.7050
 0.8190	49.6930
 0.8200	49.6830
 0.8210	49.6750
 0.8220	49.6830
 0.8230	49.6910
 0.8240	49.6610
 0.8250	49.6510
 0.8260	49.6410
 0.8270	49.6230
 0.8280	49.6240
 0.8290	49.6210
 0.8300	49.6130
 0.8310	49.6030
 0.8320	49.5850
 0.8330	49.5830
 0.8340	49.5910
 0.8350	49.5890
 0.8360	49.5860
 0.8370	49.5640
 0.8380	49.5410
 0.8390	49.5550
 0.8400	49.5670
 0.8410	49.5610
 0.8420	49.5450
 0.8430	49.5520
 0.8440	49.5610
 0.8450	49.5600
 0.8460	49.5510
 0.8470	49.5540
 0.8480	49.5600
 0.8490	49.5620
 0.8500	49.5550
 0.8510	49.5370
 0.8520	49.5480
 0.8530	49.5710
 0.8540	49.5640
 0.8550	49.5590
 0.8560	49.5690
 0.8570	49.5770
 0.8580	49.5480
 0.8590	49.5410
 0.8600	49.5380
 0.8610	49.5360
 0.8620	49.5710
 0.8630	49.5720
 0.8640	49.5670
 0.8650	49.5840
 0.8660	49.5830
 0.8670	49.5830
 0.8680	49.5880
 0.8690	49.5950
 0.8700	49.6070
 0.8710	49.6080
 0.8720	49.6020
 0.8730	49.6020
 0.8740	49.6070
 0.8750	49.6060
 0.8760	49.6020
 0.8770	49.6120
 0.8780	49.6230
 0.8790	49.6230
 0.8800	49.6130
 0.8810	49.6100
 0.8820	49.6260
 0.8830	49.6440
 0.8840	49.6500
 0.8850	49.6460
 0.8860	49.6510
 0.8870	49.6580
 0.8880	49.6550
 0.8890	49.6430
 0.8900	49.6390
 0.8910	49.6470
 0.8920	49.6650
 0.8930	49.6680
 0.8940	49.6570
 0.8950	49.6490
 0.8960	49.6640
 0.8970	49.6730
 0.8980	49.6890
 0.8990	49.7000
 0.9000	49.6720
 0.9010	49.6680
 0.9020	49.6840
 0.9030	49.6990
 0.9040	49.6890
 0.9050	49.6970
 0.9060	49.7040
 0.9070	49.6970
 0.9080	49.6990
 0.9090	49.7150
 0.9100	49.7140
 0.9110	49.6870
 0.9120	49.6980
 0.9130	49.7270
 0.9140	49.7390
 0.9150	49.7170
 0.9160	49.7370
 0.9170	49.7190
 0.9180	49.6930
 0.9190	49.7180
 0.9200	49.7470
 0.9210	49.7490
 0.9220	49.7320
 0.9230	49.7200
 0.9240	49.7180
 0.9250	49.6990
 0.9260	49.6720
 0.9270	49.6650
 0.9280	49.6680
 0.9290	49.6680
 0.9300	49.6570
 0.9310	49.6380
 0.9320	49.6300
 0.9330	49.6210
 0.9340	49.6150
 0.9350	49.6310
 0.9360	49.6080
 0.9370	49.5780
 0.9380	49.5620
 0.9390	49.5460
 0.9400	49.5220
 0.9410	49.5040
 0.9420	49.4990
 0.9430	49.4840
 0.9440	49.4710
 0.9450	49.4530
 0.9460	49.4240
 0.9470	49.4010
 0.9480	49.3480
 0.9490	49.3070
 0.9500	49.2940
 0.9510	49.2210
 0.9520	49.1830
 0.9530	49.1650
 0.9540	49.1350
 0.9550	49.1070
 0.9560	49.0640
 0.9570	49.0050
 0.9580	48.9410
 0.9590	48.9220
 0.9600	48.9000
 0.9610	48.8820
 0.9620	48.8790
 0.9630	48.8490
 0.9640	48.7970
 0.9650	48.7570
 0.9660	48.7540
 0.9670	48.7250
 0.9680	48.7160
 0.9690	48.7310
 0.9700	48.7430
 0.9710	48.6910
 0.9720	48.6650
 0.9730	48.6710
 0.9740	48.6780
 0.9750	48.6850
 0.9760	48.6710
 0.9770	48.6580
 0.9780	48.6700
 0.9790	48.6540
 0.9800	48.6390
 0.9810	48.6200
 0.9820	48.5910
 0.9830	48.6170
 0.9840	48.6390
 0.9850	48.6210
 0.9860	48.5710
 0.9870	48.5990
 0.9880	48.6410
 0.9890	48.6740
 0.9900	48.6900
 0.9910	48.6590
 0.9920	48.6950
 0.9930	48.7320
 0.9940	48.7690
 0.9950	48.8060
 0.9960	48.8430
 0.9970	48.8790
 0.9980	48.9160
 0.9990	48.9530
 1.0000	48.9900
 1.0010	49.0270
 1.0020	49.0630
 1.0030	49.1000
 1.0040	49.1370
 1.0050	49.1740
 1.0060	49.2110
 1.0070	49.2470
 1.0080	49.2840
 1.0090	49.3210
 1.0100	49.3210
 1.0110	49.3250
 1.0120	49.3350
 1.0130	49.3610
 1.0140	49.3730
 1.0150	49.3820
 1.0160	49.3780
 1.0170	49.3810
 1.0180	49.3830
 1.0190	49.3910
 1.0200	49.4030
 1.0210	49.4050
 1.0220	49.4110
 1.0230	49.4190
 1.0240	49.4310
 1.0250	49.4350
 1.0260	49.4370
 1.0270	49.4410
 1.0280	49.4380
 1.0290	49.4420
 1.0300	49.4530
 1.0310	49.4600
 1.0320	49.4660
 1.0330	49.4690
 1.0340	49.4840
 1.0350	49.5040
 1.0360	49.5120
 1.0370	49.5170
 1.0380	49.5200
 1.0390	49.5090
 1.0400	49.5110
 1.0410	49.5240
 1.0420	49.5270
 1.0430	49.5260
 1.0440	49.5290
 1.0450	49.5320
 1.0460	49.5360
 1.0470	49.5450
 1.0480	49.5480
 1.0490	49.5450
 1.0500	49.5450
 1.0510	49.5410
 1.0520	49.5470
 1.0530	49.5460
 1.0540	49.5460
 1.0550	49.5460
 1.0560	49.5440
 1.0570	49.5410
 1.0580	49.5340
 1.0590	49.5350
 1.0600	49.5360
 1.0610	49.5410
 1.0620	49.5610
 1.0630	49.5670
 1.0640	49.5680
 1.0650	49.5670
 1.0660	49.5570
 1.0670	49.5510
 1.0680	49.5460
 1.0690	49.5400
 1.0700	49.5410
 1.0710	49.5440
 1.0720	49.5530
 1.0730	49.5730
 1.0740	49.5780
 1.0750	49.5780
 1.0760	49.5790
 1.0770	49.5740
 1.0780	49.5690
 1.0790	49.5690
 1.0800	49.5630
 1.0810	49.5470
 1.0820	49.5370
 1.0830	49.5290
 1.0840	49.5230
 1.0850	49.5190
 1.0860	49.5190
 1.0870	49.5190
 1.0880	49.5210
 1.0890	49.5170
 1.0900	49.5120
 1.0910	49.5050
 1.0920	49.4940
 1.0930	49.4830
 1.0940	49.4720
 1.0950	49.4590
 1.0960	49.4390
 1.0970	49.4260
 1.0980	49.4170
 1.0990	49.4040
 1.1000	49.3950
 1.1010	49.3810
 1.1020	49.3650
 1.1030	49.3440
 1.1040	49.3240
 1.1050	49.3110
 1.1060	49.2990
 1.1070	49.2920
 1.1080	49.2770
 1.1090	49.2610
 1.1100	49.2410
 1.1110	49.2090
 1.1120	49.1870
 1.1130	49.1700
 1.1140	49.1480
 1.1150	49.1280
 1.1160	49.1070
 1.1170	49.0850
 1.1180	49.0590
 1.1190	49.0330
 1.1200	49.0070
 1.1210	48.9780
 1.1220	48.9510
 1.1230	48.9190
 1.1240	48.8820
 1.1250	48.8460
 1.1260	48.8050
 1.1270	48.7650
 1.1280	48.7290
 1.1290	48.6870
 1.1300	48.6440
 1.1310	48.5950
 1.1320	48.5420
 1.1330	48.4840
 1.1340	48.4200
 1.1350	48.3550
 1.1360	48.2860
 1.1370	48.2200
 1.1380	48.1410
 1.1390	48.0570
 1.1400	47.9720
 1.1410	47.8810
 1.1420	47.7970
 1.1430	47.7150
 1.1440	47.6290
 1.1450	47.5410
 1.1460	47.4530
 1.1470	47.3620
 1.1480	47.2750
 1.1490	47.1890
 1.1500	47.1070
 1.1510	47.0270
 1.1520	46.9530
 1.1530	46.8860
 1.1540	46.8210
 1.1550	46.7580
 1.1560	46.7030
 1.1570	46.6550
 1.1580	46.6090
 1.1590	46.5730
 1.1600	46.5430
 1.1610	46.5180
 1.1620	46.4960
 1.1630	46.4770
 1.1640	46.4600
 1.1650	46.4440
 1.1660	46.4280
 1.1670	46.4140
 1.1680	46.4040
 1.1690	46.3950
 1.1700	46.3860
 1.1710	46.3780
 1.1720	46.3730
 1.1730	46.3660
 1.1740	46.3580
 1.1750	46.3490
 1.1760	46.3430
 1.1770	46.3350
 1.1780	46.3250
 1.1790	46.3230
 1.1800	46.3170
 1.1810	46.3080
 1.1820	46.3030
 1.1830	46.2900
 1.1840	46.2740
 1.1850	46.2670
 1.1860	46.2580
 1.1870	46.2500
 1.1880	46.2410
 1.1890	46.2330
 1.1900	46.2260
 1.1910	46.2190
 1.1920	46.2130
 1.1930	46.2140
 1.1940	46.2090
 1.1950	46.2010
 1.1960	46.1940
 1.1970	46.1870
 1.1980	46.1780
 1.1990	46.1730
 1.2000	46.1730
 1.2010	46.1710
 1.2020	46.1770
 1.2030	46.1830
 1.2040	46.1870
 1.2050	46.1940
 1.2060	46.1930
 1.2070	46.1920
 1.2080	46.1940
 1.2090	46.2000
 1.2100	46.2090
 1.2110	46.2160
 1.2120	46.2230
 1.2130	46.2320
 1.2140	46.2390
 1.2150	46.2480
 1.2160	46.2600
 1.2170	46.2720
 1.2180	46.2790
 1.2190	46.2890
 1.2200	46.3000
 1.2210	46.3120
 1.2220	46.3250
 1.2230	46.3370
 1.2240	46.3490
 1.2250	46.3630
 1.2260	46.3730
 1.2270	46.3830
 1.2280	46.3940
 1.2290	46.4020
 1.2300	46.4100
 1.2310	46.4210
 1.2320	46.4300
 1.2330	46.4400
 1.2340	46.4480
 1.2350	46.4540
 1.2360	46.4620
 1.2370	46.4690
 1.2380	46.4750
 1.2390	46.4810
 1.2400	46.4880
 1.2410	46.4920
 1.2420	46.4990
 1.2430	46.5110
 1.2440	46.5220
 1.2450	46.5320
 1.2460	46.5370
 1.2470	46.5390
 1.2480	46.5360
 1.2490	46.5390
 1.2500	46.5460
 1.2510	46.5460
 1.2520	46.5480
 1.2530	46.5470
 1.2540	46.5420
 1.2550	46.5380
 1.2560	46.5320
 1.2570	46.5310
 1.2580	46.5330
 1.2590	46.5340
 1.2600	46.5420
 1.2610	46.5420
 1.2620	46.5360
 1.2630	46.5270
 1.2640	46.5210
 1.2650	46.5130
 1.2660	46.5070
 1.2670	46.5050
 1.2680	46.5000
 1.2690	46.4930
 1.2700	46.4840
 1.2710	46.4750
 1.2720	46.4680
 1.2730	46.4580
 1.2740	46.4480
 1.2750	46.4370
 1.2760	46.4160
 1.2770	46.3940
 1.2780	46.3760
 1.2790	46.3590
 1.2800	46.3410
 1.2810	46.3230
 1.2820	46.3070
 1.2830	46.2970
 1.2840	46.2870
 1.2850	46.2790
 1.2860	46.2720
 1.2870	46.2610
 1.2880	46.2430
 1.2890	46.2270
 1.2900	46.2120
 1.2910	46.1910
 1.2920	46.1680
 1.2930	46.1450
 1.2940	46.1190
 1.2950	46.0980
 1.2960	46.0750
 1.2970	46.0470
 1.2980	46.0180
 1.2990	45.9830
 1.3000	45.9460
 1.3010	45.9130
 1.3020	45.8790
 1.3030	45.8460
 1.3040	45.8140
 1.3050	45.7780
 1.3060	45.7360
 1.3070	45.6860
 1.3080	45.6370
 1.3090	45.5880
 1.3100	45.5360
 1.3110	45.4870
 1.3120	45.4330
 1.3130	45.3740
 1.3140	45.3130
 1.3150	45.2510
 1.3160	45.1840
 1.3170	45.1140
 1.3180	45.0400
 1.3190	44.9630
 1.3200	44.8850
 1.3210	44.8020
 1.3220	44.7200
 1.3230	44.6360
 1.3240	44.5510
 1.3250	44.4660
 1.3260	44.3760
 1.3270	44.2850
 1.3280	44.1910
 1.3290	44.0910
 1.3300	43.9920
 1.3310	43.8910
 1.3320	43.7890
 1.3330	43.6890
 1.3340	43.5890
 1.3350	43.4860
 1.3360	43.3790
 1.3370	43.2750
 1.3380	43.1660
 1.3390	43.0550
 1.3400	42.9460
 1.3410	42.8390
 1.3420	42.7350
 1.3430	42.6330
 1.3440	42.5320
 1.3450	42.4290
 1.3460	42.3240
 1.3470	42.2220
 1.3480	42.1210
 1.3490	42.0230
 1.3500	41.9280
 1.3510	41.8350
 1.3520	41.7420
 1.3530	41.6500
 1.3540	41.5580
 1.3550	41.4650
 1.3560	41.3740
 1.3570	41.2800
 1.3580	41.1830
 1.3590	41.0840
 1.3600	40.9800
 1.3610	40.8740
 1.3620	40.7650
 1.3630	40.6480
 1.3640	40.5250
 1.3650	40.3940
 1.3660	40.2560
 1.3670	40.1150
 1.3680	39.9660
 1.3690	39.8070
 1.3700	39.6390
 1.3710	39.4600
 1.3720	39.2710
 1.3730	39.0720
 1.3740	38.8620
 1.3750	38.6360
 1.3760	38.3960
 1.3770	38.1360
 1.3780	37.8530
 1.3790	37.5560
 1.3800	37.2380
 1.3810	36.8980
 1.3820	36.5400
 1.3830	36.1650
 1.3840	35.7690
 1.3850	35.3550
 1.3860	34.9250
 1.3870	34.4760
 1.3880	34.0200
 1.3890	33.5500
 1.3900	33.0650
 1.3910	32.5780
 1.3920	32.0820
 1.3930	31.5740
 1.3940	31.0640
 1.3950	30.5490
 1.3960	30.0350
 1.3970	29.5300
 1.3980	29.0310
 1.3990	28.5450
 1.4000	28.0670
 1.4010	27.5990
 1.4020	27.1470
 1.4030	26.7080
 1.4040	26.2860
 1.4050	25.8820
 1.4060	25.4960
 1.4070	25.1340
 1.4080	24.7910
 1.4090	24.4680
 1.4100	24.1670
 1.4110	23.8820
 1.4120	23.6170
 1.4130	23.3730
 1.4140	23.1470
 1.4150	22.9430
 1.4160	22.7560
 1.4170	22.5840
 1.4180	22.4280
 1.4190	22.2850
 1.4200	22.1560
 1.4210	22.0410
 1.4220	21.9360
 1.4230	21.8420
 1.4240	21.7600
 1.4250	21.6850
 1.4260	21.6190
 1.4270	21.5610
 1.4280	21.5130
 1.4290	21.4690
 1.4300	21.4340
 1.4310	21.4030
 1.4320	21.3790
 1.4330	21.3580
 1.4340	21.3410
 1.4350	21.3290
 1.4360	21.3220
 1.4370	21.3200
 1.4380	21.3210
 1.4390	21.3250
 1.4400	21.3320
 1.4410	21.3390
 1.4420	21.3510
 1.4430	21.3650
 1.4440	21.3790
 1.4450	21.3960
 1.4460	21.4130
 1.4470	21.4300
 1.4480	21.4490
 1.4490	21.4710
 1.4500	21.4950
 1.4510	21.5190
 1.4520	21.5420
 1.4530	21.5650
 1.4540	21.5880
 1.4550	21.6160
 1.4560	21.6490
 1.4570	21.6830
 1.4580	21.7230
 1.4590	21.7640
 1.4600	21.8070
 1.4610	21.8550
 1.4620	21.9070
 1.4630	21.9630
 1.4640	22.0270
 1.4650	22.0940
 1.4660	22.1670
 1.4670	22.2460
 1.4680	22.3290
 1.4690	22.4160
 1.4700	22.5090
 1.4710	22.6080
 1.4720	22.7090
 1.4730	22.8130
 1.4740	22.9210
 1.4750	23.0280
 1.4760	23.1400
 1.4770	23.2580
 1.4780	23.3740
 1.4790	23.4910
 1.4800	23.6090
 1.4810	23.7270
 1.4820	23.8470
 1.4830	23.9690
 1.4840	24.0920
 1.4850	24.2170
 1.4860	24.3410
 1.4870	24.4640
 1.4880	24.5870
 1.4890	24.7070
 1.4900	24.8290
 1.4910	24.9530
 1.4920	25.0760
 1.4930	25.2010
 1.4940	25.3230
 1.4950	25.4460
 1.4960	25.5660
 1.4970	25.6810
 1.4980	25.8000
 1.4990	25.9190
 1.5000	26.0390
 1.5010	26.1630
 1.5020	26.2830
 1.5030	26.4030
 1.5040	26.5220
 1.5050	26.6390
 1.5060	26.7570
 1.5070	26.8740
 1.5080	26.9900
 1.5090	27.1050
 1.5100	27.2200
 1.5110	27.3330
 1.5120	27.4470
 1.5130	27.5580
 1.5140	27.6670
 1.5150	27.7750
 1.5160	27.8810
 1.5170	27.9860
 1.5180	28.0910
 1.5190	28.1930
 1.5200	28.2960
 1.5210	28.3990
 1.5220	28.5020
 1.5230	28.6020
 1.5240	28.7020
 1.5250	28.7970
 1.5260	28.8910
 1.5270	28.9860
 1.5280	29.0810
 1.5290	29.1740
 1.5300	29.2670
 1.5310	29.3580
 1.5320	29.4440
 1.5330	29.5340
 1.5340	29.6230
 1.5350	29.7140
 1.5360	29.8060
 1.5370	29.8960
 1.5380	29.9820
 1.5390	30.0670
 1.5400	30.1490
 1.5410	30.2300
 1.5420	30.3110
 1.5430	30.3920
 1.5440	30.4720
 1.5450	30.5510
 1.5460	30.6300
 1.5470	30.7060
 1.5480	30.7790
 1.5490	30.8530
 1.5500	30.9230
 1.5510	30.9920
 1.5520	31.0600
 1.5530	31.1270
 1.5540	31.1940
 1.5550	31.2630
 1.5560	31.3330
 1.5570	31.3980
 1.5580	31.4610
 1.5590	31.5250
 1.5600	31.5860
 1.5610	31.6510
 1.5620	31.7180
 1.5630	31.7790
 1.5640	31.8400
 1.5650	31.9000
 1.5660	31.9560
 1.5670	32.0140
 1.5680	32.0740
 1.5690	32.1300
 1.5700	32.1880
 1.5710	32.2480
 1.5720	32.3010
 1.5730	32.3530
 1.5740	32.4020
 1.5750	32.4490
 1.5760	32.5000
 1.5770	32.5520
 1.5780	32.6040
 1.5790	32.6530
 1.5800	32.6990
 1.5810	32.7440
 1.5820	32.7870
 1.5830	32.8320
 1.5840	32.8760
 1.5850	32.9190
 1.5860	32.9610
 1.5870	33.0010
 1.5880	33.0450
 1.5890	33.0890
 1.5900	33.1330
 1.5910	33.1800
 1.5920	33.2260
 1.5930	33.2690
 1.5940	33.3110
 1.5950	33.3520
 1.5960	33.3900
 1.5970	33.4300
 1.5980	33.4710
 1.5990	33.5100
 1.6000	33.5480
 1.6010	33.5860
 1.6020	33.6230
 1.6030	33.6620
 1.6040	33.7020
 1.6050	33.7420
 1.6060	33.7830
 1.6070	33.8210
 1.6080	33.8540
 1.6090	33.8870
 1.6100	33.9180
 1.6110	33.9480
 1.6120	33.9820
 1.6130	34.0120
 1.6140	34.0380
 1.6150	34.0640
 1.6160	34.0880
 1.6170	34.1120
 1.6180	34.1330
 1.6190	34.1560
 1.6200	34.1770
 1.6210	34.1990
 1.6220	34.2240
 1.6230	34.2480
 1.6240	34.2720
 1.6250	34.2950
 1.6260	34.3150
 1.6270	34.3330
 1.6280	34.3490
 1.6290	34.3620
 1.6300	34.3710
 1.6310	34.3810
 1.6320	34.3890
 1.6330	34.3970
 1.6340	34.4060
 1.6350	34.4110
 1.6360	34.4160
 1.6370	34.4170
 1.6380	34.4140
 1.6390	34.4110
 1.6400	34.4040
 1.6410	34.3940
 1.6420	34.3850
 1.6430	34.3700
 1.6440	34.3490
 1.6450	34.3250
 1.6460	34.2960
 1.6470	34.2630
 1.6480	34.2340
 1.6490	34.2110
 1.6500	34.1860
 1.6510	34.1610
 1.6520	34.1340
 1.6530	34.1010
 1.6540	34.0750
 1.6550	34.0610
 1.6560	34.0470
 1.6570	34.0400
 1.6580	34.0400
 1.6590	34.0400
 1.6600	34.0510
 1.6610	34.0670
 1.6620	34.0850
 1.6630	34.1090
 1.6640	34.1340
 1.6650	34.1650
 1.6660	34.1950
 1.6670	34.2170
 1.6680	34.2370
 1.6690	34.2550
 1.6700	34.2700
 1.6710	34.2830
 1.6720	34.2920
 1.6730	34.2990
 1.6740	34.3010
 1.6750	34.3020
 1.6760	34.3010
 1.6770	34.2970
 1.6780	34.2900
 1.6790	34.2810
 1.6800	34.2700
 1.6810	34.2590
 1.6820	34.2430
 1.6830	34.2270
 1.6840	34.2080
 1.6850	34.1780
 1.6860	34.1470
 1.6870	34.1170
 1.6880	34.0860
 1.6890	34.0580
 1.6900	34.0280
 1.6910	33.9970
 1.6920	33.9620
 1.6930	33.9220
 1.6940	33.8860
 1.6950	33.8450
 1.6960	33.8100
 1.6970	33.7800
 1.6980	33.7480
 1.6990	33.7180
 1.7000	33.6850
 1.7010	33.6530
 1.7020	33.6190
 1.7030	33.5820
 1.7040	33.5460
 1.7050	33.5110
 1.7060	33.4740
 1.7070	33.4370
 1.7080	33.3930
 1.7090	33.3440
 1.7100	33.2970
 1.7110	33.2450
 1.7120	33.1970
 1.7130	33.1540
 1.7140	33.1110
 1.7150	33.0690
 1.7160	33.0290
 1.7170	32.9870
 1.7180	32.9430
 1.7190	32.9040
 1.7200	32.8650
 1.7210	32.8260
 1.7220	32.7880
 1.7230	32.7470
 1.7240	32.7070
 1.7250	32.6690
 1.7260	32.6340
 1.7270	32.6020
 1.7280	32.5680
 1.7290	32.5380
 1.7300	32.5120
 1.7310	32.4860
 1.7320	32.4620
 1.7330	32.4390
 1.7340	32.4160
 1.7350	32.3920
 1.7360	32.3730
 1.7370	32.3470
 1.7380	32.3180
 1.7390	32.2860
 1.7400	32.2510
 1.7410	32.2120
 1.7420	32.1710
 1.7430	32.1260
 1.7440	32.0750
 1.7450	32.0250
 1.7460	31.9730
 1.7470	31.9210
 1.7480	31.8690
 1.7490	31.8170
 1.7500	31.7660
 1.7510	31.7110
 1.7520	31.6570
 1.7530	31.6010
 1.7540	31.5420
 1.7550	31.4930
 1.7560	31.4410
 1.7570	31.3890
 1.7580	31.3370
 1.7590	31.2810
 1.7600	31.2250
 1.7610	31.1770
 1.7620	31.1300
 1.7630	31.0880
 1.7640	31.0430
 1.7650	30.9950
 1.7660	30.9510
 1.7670	30.9050
 1.7680	30.8630
 1.7690	30.8240
 1.7700	30.7860
 1.7710	30.7530
 1.7720	30.7170
 1.7730	30.6810
 1.7740	30.6470
 1.7750	30.6130
 1.7760	30.5800
 1.7770	30.5470
 1.7780	30.5160
 1.7790	30.4840
 1.7800	30.4530
 1.7810	30.4240
 1.7820	30.3980
 1.7830	30.3720
 1.7840	30.3490
 1.7850	30.3290
 1.7860	30.3090
 1.7870	30.2870
 1.7880	30.2730
 1.7890	30.2630
 1.7900	30.2550
 1.7910	30.2450
 1.7920	30.2340
 1.7930	30.2210
 1.7940	30.2050
 1.7950	30.1950
 1.7960	30.1880
 1.7970	30.1800
 1.7980	30.1770
 1.7990	30.1710
 1.8000	30.1620
 1.8010	30.1540
 1.8020	30.1460
 1.8030	30.1400
 1.8040	30.1350
 1.8050	30.1340
 1.8060	30.1390
 1.8070	30.1410
 1.8080	30.1470
 1.8090	30.1430
 1.8100	30.1320
 1.8110	30.1280
 1.8120	30.1250
 1.8130	30.1260
 1.8140	30.1290
 1.8150	30.1240
 1.8160	30.1170
 1.8170	30.1190
 1.8180	30.1240
 1.8190	30.1250
 1.8200	30.1260
 1.8210	30.1210
 1.8220	30.1170
 1.8230	30.1160
 1.8240	30.1150
 1.8250	30.1150
 1.8260	30.1090
 1.8270	30.1140
 1.8280	30.1190
 1.8290	30.1240
 1.8300	30.1280
 1.8310	30.1330
 1.8320	30.1380
 1.8330	30.1430
 1.8340	30.1480
 1.8350	30.1480
 1.8360	30.1120
 1.8370	30.0720
 1.8380	30.0310
 1.8390	29.9840
 1.8400	29.9330
 1.8410	29.8740
 1.8420	29.8080
 1.8430	29.7340
 1.8440	29.6590
 1.8450	29.5780
 1.8460	29.4950
 1.8470	29.4010
 1.8480	29.2980
 1.8490	29.1860
 1.8500	29.0660
 1.8510	28.9390
 1.8520	28.8040
 1.8530	28.6480
 1.8540	28.4820
 1.8550	28.3040
 1.8560	28.1190
 1.8570	27.9340
 1.8580	27.7330
 1.8590	27.5200
 1.8600	27.3000
 1.8610	27.0600
 1.8620	26.8000
 1.8630	26.5350
 1.8640	26.2530
 1.8650	25.9480
 1.8660	25.6260
 1.8670	25.2830
 1.8680	24.9160
 1.8690	24.5290
 1.8700	24.1210
 1.8710	23.6930
 1.8720	23.2510
 1.8730	22.7970
 1.8740	22.3310
 1.8750	21.8600
 1.8760	21.3710
 1.8770	20.8710
 1.8780	20.3660
 1.8790	19.8520
 1.8800	19.3440
 1.8810	18.8360
 1.8820	18.3260
 1.8830	17.8180
 1.8840	17.3180
 1.8850	16.8170
 1.8860	16.3280
 1.8870	15.8510
 1.8880	15.3780
 1.8890	14.9220
 1.8900	14.4830
 1.8910	14.0700
 1.8920	13.6720
 1.8930	13.3060
 1.8940	12.9570
 1.8950	12.6340
 1.8960	12.3400
 1.8970	12.0620
 1.8980	11.8120
 1.8990	11.5840
 1.9000	11.3690
 1.9010	11.1700
 1.9020	10.9910
 1.9030	10.8320
 1.9040	10.6870
 1.9050	10.5600
 1.9060	10.4490
 1.9070	10.3520
 1.9080	10.2720
 1.9090	10.2030
 1.9100	10.1400
 1.9110	10.0860
 1.9120	10.0440
 1.9130	10.0010
 1.9140	 9.9640
 1.9150	 9.9340
 1.9160	 9.9080
 1.9170	 9.8860
 1.9180	 9.8720
 1.9190	 9.8620
 1.9200	 9.8530
 1.9210	 9.8510
 1.9220	 9.8500
 1.9230	 9.8510
 1.9240	 9.8540
 1.9250	 9.8610
 1.9260	 9.8660
 1.9270	 9.8730
 1.9280	 9.8850
 1.9290	 9.8980
 1.9300	 9.9130
 1.9310	 9.9300
 1.9320	 9.9520
 1.9330	 9.9740
 1.9340	 9.9980
 1.9350	10.0210
 1.9360	10.0460
 1.9370	10.0700
 1.9380	10.0960
 1.9390	10.1190
 1.9400	10.1440
 1.9410	10.1740
 1.9420	10.2030
 1.9430	10.2390
 1.9440	10.2740
 1.9450	10.3130
 1.9460	10.3490
 1.9470	10.3830
 1.9480	10.4220
 1.9490	10.4610
 1.9500	10.5020
 1.9510	10.5460
 1.9520	10.5940
 1.9530	10.6420
 1.9540	10.6950
 1.9550	10.7450
 1.9560	10.7930
 1.9570	10.8440
 1.9580	10.8930
 1.9590	10.9470
 1.9600	11.0090
 1.9610	11.0660
 1.9620	11.1220
 1.9630	11.1770
 1.9640	11.2340
 1.9650	11.2900
 1.9660	11.3500
 1.9670	11.4150
 1.9680	11.4780
 1.9690	11.5410
 1.9700	11.6050
 1.9710	11.6680
 1.9720	11.7320
 1.9730	11.7970
 1.9740	11.8640
 1.9750	11.9290
 1.9760	11.9970
 1.9770	12.0640
 1.9780	12.1330
 1.9790	12.2060
 1.9800	12.2830
 1.9810	12.3600
 1.9820	12.4400
 1.9830	12.5180
 1.9840	12.5980
 1.9850	12.6770
 1.9860	12.7560
 1.9870	12.8360
 1.9880	12.9150
 1.9890	12.9910
 1.9900	13.0720
 1.9910	13.1520
 1.9920	13.2310
 1.9930	13.3100
 1.9940	13.3910
 1.9950	13.4720
 1.9960	13.5510
 1.9970	13.6300
 1.9980	13.7110
 1.9990	13.7910
 2.0000	13.8720
 2.0010	13.9520
 2.0020	14.0380
 2.0030	14.1230
 2.0040	14.2010
 2.0050	14.2820
 2.0060	14.3680
 2.0070	14.4480
 2.0080	14.5260
 2.0090	14.6040
 2.0100	14.6780
 2.0110	14.7540
 2.0120	14.8340
 2.0130	14.9090
 2.0140	14.9810
 2.0150	15.0590
 2.0160	15.1340
 2.0170	15.2120
 2.0180	15.2830
 2.0190	15.3510
 2.0200	15.4180
 2.0210	15.4800
 2.0220	15.5470
 2.0230	15.6210
 2.0240	15.6870
 2.0250	15.7480
 2.0260	15.8080
 2.0270	15.8620
 2.0280	15.9170
 2.0290	15.9770
 2.0300	16.0390
 2.0310	16.0970
 2.0320	16.1570
 2.0330	16.2110
 2.0340	16.2590
 2.0350	16.3100
 2.0360	16.3610
 2.0370	16.4100
 2.0380	16.4620
 2.0390	16.5080
 2.0400	16.5440
 2.0410	16.5870
 2.0420	16.6320
 2.0430	16.6750
 2.0440	16.7160
 2.0450	16.7590
 2.0460	16.7990
 2.0470	16.8340
 2.0480	16.8720
 2.0490	16.9130
 2.0500	16.9510
 2.0510	16.9860
 2.0520	17.0240
 2.0530	17.0620
 2.0540	17.1000
 2.0550	17.1350
 2.0560	17.1760
 2.0570	17.2180
 2.0580	17.2610
 2.0590	17.3020
 2.0600	17.3450
 2.0610	17.3830
 2.0620	17.4140
 2.0630	17.4520
 2.0640	17.4900
 2.0650	17.5300
 2.0660	17.5750
 2.0670	17.6150
 2.0680	17.6510
 2.0690	17.6880
 2.0700	17.7190
 2.0710	17.7550
 2.0720	17.7950
 2.0730	17.8330
 2.0740	17.8710
 2.0750	17.9110
 2.0760	17.9470
 2.0770	17.9790
 2.0780	18.0150
 2.0790	18.0520
 2.0800	18.0880
 2.0810	18.1280
 2.0820	18.1630
 2.0830	18.1930
 2.0840	18.2230
 2.0850	18.2480
 2.0860	18.2750
 2.0870	18.3020
 2.0880	18.3320
 2.0890	18.3560
 2.0900	18.3780
 2.0910	18.4000
 2.0920	18.4180
 2.0930	18.4410
 2.0940	18.4650
 2.0950	18.4920
 2.0960	18.5210
 2.0970	18.5510
 2.0980	18.5820
 2.0990	18.6150
 2.1000	18.6560
 2.1010	18.6860
 2.1020	18.7160
 2.1030	18.7390
 2.1040	18.7540
 2.1050	18.7610
 2.1060	18.7730
 2.1070	18.7820
 2.1080	18.7970
 2.1090	18.8160
 2.1100	18.8310
 2.1110	18.8500
 2.1120	18.8650
 2.1130	18.8770
 2.1140	18.8880
 2.1150	18.8980
 2.1160	18.9080
 2.1170	18.9190
 2.1180	18.9260
 2.1190	18.9300
 2.1200	18.9380
 2.1210	18.9420
 2.1220	18.9510
 2.1230	18.9600
 2.1240	18.9770
 2.1250	18.9780
 2.1260	18.9680
 2.1270	18.9690
 2.1280	18.9650
 2.1290	18.9710
 2.1300	18.9920
 2.1310	19.0030
 2.1320	19.0110
 2.1330	19.0210
 2.1340	19.0250
 2.1350	19.0360
 2.1360	19.0510
 2.1370	19.0670
 2.1380	19.0880
 2.1390	19.1080
 2.1400	19.1270
 2.1410	19.1520
 2.1420	19.1750
 2.1430	19.2010
 2.1440	19.2210
 2.1450	19.2360
 2.1460	19.2530
 2.1470	19.2670
 2.1480	19.2840
 2.1490	19.3060
 2.1500	19.3260
 2.1510	19.3460
 2.1520	19.3660
 2.1530	19.3870
 2.1540	19.4040
 2.1550	19.4190
 2.1560	19.4310
 2.1570	19.4360
 2.1580	19.4450
 2.1590	19.4520
 2.1600	19.4610
 2.1610	19.4880
 2.1620	19.5050
 2.1630	19.5210
 2.1640	19.5430
 2.1650	19.5560
 2.1660	19.5590
 2.1670	19.5700
 2.1680	19.5810
 2.1690	19.5920
 2.1700	19.6030
 2.1710	19.6160
 2.1720	19.6330
 2.1730	19.6470
 2.1740	19.6640
 2.1750	19.6750
 2.1760	19.6800
 2.1770	19.6880
 2.1780	19.6930
 2.1790	19.7040
 2.1800	19.7170
 2.1810	19.7330
 2.1820	19.7570
 2.1830	19.7810
 2.1840	19.8010
 2.1850	19.8230
 2.1860	19.8410
 2.1870	19.8510
 2.1880	19.8700
 2.1890	19.8920
 2.1900	19.9150
 2.1910	19.9450
 2.1920	19.9680
 2.1930	19.9900
 2.1940	20.0060
 2.1950	20.0130
 2.1960	20.0250
 2.1970	20.0350
 2.1980	20.0500
 2.1990	20.0730
 2.2000	20.0940
 2.2010	20.1180
 2.2020	20.1360
 2.2030	20.1490
 2.2040	20.1650
 2.2050	20.1770
 2.2060	20.1920
 2.2070	20.2080
 2.2080	20.2260
 2.2090	20.2410
 2.2100	20.2530
 2.2110	20.2710
 2.2120	20.2930
 2.2130	20.3120
 2.2140	20.3330
 2.2150	20.3530
 2.2160	20.3710
 2.2170	20.3850
 2.2180	20.3980
 2.2190	20.4080
 2.2200	20.4120
 2.2210	20.4190
 2.2220	20.4330
 2.2230	20.4360
 2.2240	20.4300
 2.2250	20.4270
 2.2260	20.4200
 2.2270	20.4130
 2.2280	20.4150
 2.2290	20.4040
 2.2300	20.3850
 2.2310	20.3590
 2.2320	20.3290
 2.2330	20.2960
 2.2340	20.2680
 2.2350	20.2450
 2.2360	20.2140
 2.2370	20.1860
 2.2380	20.1470
 2.2390	20.1020
 2.2400	20.0560
 2.2410	20.0030
 2.2420	19.9540
 2.2430	19.9060
 2.2440	19.8540
 2.2450	19.7960
 2.2460	19.7470
 2.2470	19.7010
 2.2480	19.6540
 2.2490	19.6200
 2.2500	19.5720
 2.2510	19.5100
 2.2520	19.4580
 2.2530	19.4010
 2.2540	19.3500
 2.2550	19.3110
 2.2560	19.2670
 2.2570	19.2200
 2.2580	19.1770
 2.2590	19.1310
 2.2600	19.0910
 2.2610	19.0520
 2.2620	19.0260
 2.2630	18.9980
 2.2640	18.9720
 2.2650	18.9590
 2.2660	18.9310
 2.2670	18.8960
 2.2680	18.8560
 2.2690	18.8170
 2.2700	18.7660
 2.2710	18.7230
 2.2720	18.6830
 2.2730	18.6430
 2.2740	18.6050
 2.2750	18.5620
 2.2760	18.5160
 2.2770	18.4790
 2.2780	18.4410
 2.2790	18.4030
 2.2800	18.3740
 2.2810	18.3400
 2.2820	18.2970
 2.2830	18.2610
 2.2840	18.2330
 2.2850	18.1970
 2.2860	18.1610
 2.2870	18.1190
 2.2880	18.0720
 2.2890	18.0220
 2.2900	17.9600
 2.2910	17.9140
 2.2920	17.8800
 2.2930	17.8370
 2.2940	17.8030
 2.2950	17.7570
 2.2960	17.6920
 2.2970	17.6340
 2.2980	17.5710
 2.2990	17.5230
 2.3000	17.4770
 2.3010	17.4220
 2.3020	17.3600
 2.3030	17.3000
 2.3040	17.2440
 2.3050	17.1870
 2.3060	17.1490
 2.3070	17.1190
 2.3080	17.0740
 2.3090	17.0340
 2.3100	17.0010
 2.3110	16.9620
 2.3120	16.9280
 2.3130	16.9050
 2.3140	16.8790
 2.3150	16.8520
 2.3160	16.8240
 2.3170	16.7980
 2.3180	16.7750
 2.3190	16.7530
 2.3200	16.7240
 2.3210	16.7000
 2.3220	16.6640
 2.3230	16.6100
 2.3240	16.5690
 2.3250	16.5360
 2.3260	16.4890
 2.3270	16.4350
 2.3280	16.3850
 2.3290	16.3240
 2.3300	16.2790
 2.3310	16.2530
 2.3320	16.2160
 2.3330	16.1760
 2.3340	16.1410
 2.3350	16.1070
 2.3360	16.0730
 2.3370	16.0480
 2.3380	16.0110
 2.3390	15.9630
 2.3400	15.9200
 2.3410	15.8780
 2.3420	15.8350
 2.3430	15.7900
 2.3440	15.7510
 2.3450	15.7080
 2.3460	15.6760
 2.3470	15.6610
 2.3480	15.6380
 2.3490	15.6140
 2.3500	15.5930
 2.3510	15.5720
 2.3520	15.5490
 2.3530	15.5240
 2.3540	15.5170
 2.3550	15.4880
 2.3560	15.4520
 2.3570	15.4260
 2.3580	15.3780
 2.3590	15.3340
 2.3600	15.3080
 2.3610	15.2750
 2.3620	15.2450
 2.3630	15.2240
 2.3640	15.1960
 2.3650	15.1730
 2.3660	15.1440
 2.3670	15.1040
 2.3680	15.0720
 2.3690	15.0360
 2.3700	14.9970
 2.3710	14.9600
 2.3720	14.9290
 2.3730	14.8800
 2.3740	14.8270
 2.3750	14.7940
 2.3760	14.7380
 2.3770	14.6720
 2.3780	14.6160
 2.3790	14.5490
 2.3800	14.4920
 2.3810	14.4770
 2.3820	14.4570
 2.3830	14.4170
 2.3840	14.3720
 2.3850	14.3140
 2.3860	14.2420
 2.3870	14.1830
 2.3880	14.1440
 2.3890	14.0920
 2.3900	14.0420
 2.3910	13.9890
 2.3920	13.9210
 2.3930	13.8640
 2.3940	13.8200
 2.3950	13.7840
 2.3960	13.7510
 2.3970	13.7180
 2.3980	13.6810
 2.3990	13.6200
 2.4000	13.5680
 2.4010	13.5300
 2.4020	13.4710
 2.4030	13.4350
 2.4040	13.4160
 2.4050	13.3490
 2.4060	13.2680
 2.4070	13.2130
 2.4080	13.1500
 2.4090	13.1030
 2.4100	13.0990
 2.4110	13.0850
 2.4120	13.0600
 2.4130	13.0370
 2.4140	12.9700
 2.4150	12.8800
 2.4160	12.8010
 2.4170	12.7510
 2.4180	12.7340
 2.4190	12.6910
 2.4200	12.6330
 2.4210	12.5880
 2.4220	12.5050
 2.4230	12.4440
 2.4240	12.4290
 2.4250	12.3530
 2.4260	12.2840
 2.4270	12.2550
 2.4280	12.2000
 2.4290	12.1340
 2.4300	12.0620
 2.4310	11.9810
 2.4320	11.9090
 2.4330	11.8700
 2.4340	11.8270
 2.4350	11.7920
 2.4360	11.7560
 2.4370	11.7150
 2.4380	11.7100
 2.4390	11.6670
 2.4400	11.5930
 2.4410	11.5140
 2.4420	11.4290
 2.4430	11.3860
 2.4440	11.3490
 2.4450	11.3010
 2.4460	11.2670
 2.4470	11.2290
 2.4480	11.1860
 2.4490	11.1570
 2.4500	11.1240
 2.4510	11.0630
 2.4520	11.0140
 2.4530	10.9980
 2.4540	10.9560
 2.4550	10.9000
 2.4560	10.8560
 2.4570	10.7990
 2.4580	10.7250
 2.4590	10.6770
 2.4600	10.6630
 2.4610	10.6180
 2.4620	10.5980
 2.4630	10.6150
 2.4640	10.5800
 2.4650	10.5600
 2.4660	10.5500
 2.4670	10.4610
 2.4680	10.3740
 2.4690	10.2810
 2.4700	10.2160
 2.4710	10.1980
 2.4720	10.1510
 2.4730	10.0830
 2.4740	10.0350
 2.4750	 9.9830
 2.4760	 9.9630
 2.4770	10.0050
 2.4780	10.0350
 2.4790	10.0510
 2.4800	10.0350
 2.4810	 9.9870
 2.4820	 9.9230
 2.4830	 9.9110
 2.4840	 9.8840
 2.4850	 9.9120
 2.4860	 9.8880
 2.4870	 9.8590
 2.4880	 9.8820
 2.4890	 9.8370
 2.4900	 9.7580
 2.4910	 9.7410
 2.4920	 9.7010
 2.4930	 9.6720
 2.4940	 9.7790
 2.4950	 9.8060
 2.4960	 9.7570
 2.4970	 9.7400
 2.4980	 9.6600
 2.4990	 9.6030
 2.5000	 9.6530
